% Finesse 2.1 (2.1-4-g71575b0), 06.02.2017
% 2D plot, y1axis: Abs 
% phase [deg] (l1), sqzd_noise, shot_noise

-90.0000000000000  1.01333525459942e-09  4.32087604377984e-10 
-89.5000000000000  1.01330052843422e-09  4.32087604377984e-10 
-89.0000000000000  1.01319635337662e-09  4.32087604377984e-10 
-88.5000000000000  1.01302273974089e-09  4.32087604377984e-10 
-88.0000000000000  1.01277970471859e-09  4.32087604377984e-10 
-87.5000000000000  1.01246727238004e-09  4.32087604377984e-10 
-87.0000000000000  1.01208547367657e-09  4.32087604377984e-10 
-86.5000000000000  1.01163434644337e-09  4.32087604377984e-10 
-86.0000000000000  1.01111393540289e-09  4.32087604377984e-10 
-85.5000000000000  1.01052429216909e-09  4.32087604377984e-10 
-85.0000000000000  1.00986547525211e-09  4.32087604377984e-10 
-84.5000000000000  1.00913755006381e-09  4.32087604377984e-10 
-84.0000000000000  1.00834058892393e-09  4.32087604377984e-10 
-83.5000000000000  1.00747467106690e-09  4.32087604377984e-10 
-83.0000000000000  1.00653988264945e-09  4.32087604377984e-10 
-82.5000000000000  1.00553631675892e-09  4.32087604377984e-10 
-82.0000000000000  1.00446407342231e-09  4.32087604377984e-10 
-81.5000000000000  1.00332325961618e-09  4.32087604377984e-10 
-81.0000000000000  1.00211398927724e-09  4.32087604377984e-10 
-80.5000000000000  1.00083638331391e-09  4.32087604377984e-10 
-80.0000000000000  9.99490569618575e-10  4.32087604377984e-10 
-79.5000000000000  9.98076683080901e-10  4.32087604377984e-10 
-79.0000000000000  9.96594865601924e-10  4.32087604377984e-10 
-78.5000000000000  9.95045266109175e-10  4.32087604377984e-10 
-78.0000000000000  9.93428040572763e-10  4.32087604377984e-10 
-77.5000000000000  9.91743352022499e-10  4.32087604377984e-10 
-77.0000000000000  9.89991370566076e-10  4.32087604377984e-10 
-76.5000000000000  9.88172273408372e-10  4.32087604377984e-10 
-76.0000000000000  9.86286244871910e-10  4.32087604377984e-10 
-75.5000000000000  9.84333476418516e-10  4.32087604377984e-10 
-75.0000000000000  9.82314166672250e-10  4.32087604377984e-10 
-74.5000000000000  9.80228521443637e-10  4.32087604377984e-10 
-74.0000000000000  9.78076753755283e-10  4.32087604377984e-10 
-73.5000000000000  9.75859083868906e-10  4.32087604377984e-10 
-73.0000000000000  9.73575739313883e-10  4.32087604377984e-10 
-72.5000000000000  9.71226954917341e-10  4.32087604377984e-10 
-72.0000000000000  9.68812972835899e-10  4.32087604377984e-10 
-71.5000000000000  9.66334042589109e-10  4.32087604377984e-10 
-71.0000000000000  9.63790421094696e-10  4.32087604377984e-10 
-70.5000000000000  9.61182372705662e-10  4.32087604377984e-10 
-70.0000000000000  9.58510169249355e-10  4.32087604377984e-10 
-69.5000000000000  9.55774090068591e-10  4.32087604377984e-10 
-69.0000000000000  9.52974422064925e-10  4.32087604377984e-10 
-68.5000000000000  9.50111459744175e-10  4.32087604377984e-10 
-68.0000000000000  9.47185505264301e-10  4.32087604377984e-10 
-67.5000000000000  9.44196868485770e-10  4.32087604377984e-10 
-67.0000000000000  9.41145867024495e-10  4.32087604377984e-10 
-66.5000000000000  9.38032826307507e-10  4.32087604377984e-10 
-66.0000000000000  9.34858079631471e-10  4.32087604377984e-10 
-65.5000000000000  9.31621968224185e-10  4.32087604377984e-10 
-65.0000000000000  9.28324841309223e-10  4.32087604377984e-10 
-64.5000000000000  9.24967056173859e-10  4.32087604377984e-10 
-64.0000000000000  9.21548978240443e-10  4.32087604377984e-10 
-63.5000000000000  9.18070981141393e-10  4.32087604377984e-10 
-63.0000000000000  9.14533446797991e-10  4.32087604377984e-10 
-62.5000000000000  9.10936765503163e-10  4.32087604377984e-10 
-62.0000000000000  9.07281336008441e-10  4.32087604377984e-10 
-61.5000000000000  9.03567565615327e-10  4.32087604377984e-10 
-61.0000000000000  8.99795870271261e-10  4.32087604377984e-10 
-60.5000000000000  8.95966674670442e-10  4.32087604377984e-10 
-60.0000000000000  8.92080412359733e-10  4.32087604377984e-10 
-59.5000000000000  8.88137525849916e-10  4.32087604377984e-10 
-59.0000000000000  8.84138466732559e-10  4.32087604377984e-10 
-58.5000000000000  8.80083695802782e-10  4.32087604377984e-10 
-58.0000000000000  8.75973683188232e-10  4.32087604377984e-10 
-57.5000000000000  8.71808908484569e-10  4.32087604377984e-10 
-57.0000000000000  8.67589860897801e-10  4.32087604377984e-10 
-56.5000000000000  8.63317039393825e-10  4.32087604377984e-10 
-56.0000000000000  8.58990952855540e-10  4.32087604377984e-10 
-55.5000000000000  8.54612120247919e-10  4.32087604377984e-10 
-55.0000000000000  8.50181070791458e-10  4.32087604377984e-10 
-54.5000000000000  8.45698344144432e-10  4.32087604377984e-10 
-54.0000000000000  8.41164490594417e-10  4.32087604377984e-10 
-53.5000000000000  8.36580071259563e-10  4.32087604377984e-10 
-53.0000000000000  8.31945658300124e-10  4.32087604377984e-10 
-52.5000000000000  8.27261835140785e-10  4.32087604377984e-10 
-52.0000000000000  8.22529196704346e-10  4.32087604377984e-10 
-51.5000000000000  8.17748349657381e-10  4.32087604377984e-10 
-51.0000000000000  8.12919912668472e-10  4.32087604377984e-10 
-50.5000000000000  8.08044516679719e-10  4.32087604377984e-10 
-50.0000000000000  8.03122805192194e-10  4.32087604377984e-10 
-49.5000000000000  7.98155434566119e-10  4.32087604377984e-10 
-49.0000000000000  7.93143074336508e-10  4.32087604377984e-10 
-48.5000000000000  7.88086407545144e-10  4.32087604377984e-10 
-48.0000000000000  7.82986131089722e-10  4.32087604377984e-10 
-47.5000000000000  7.77842956091109e-10  4.32087604377984e-10 
-47.0000000000000  7.72657608279674e-10  4.32087604377984e-10 
-46.5000000000000  7.67430828401722e-10  4.32087604377984e-10 
-46.0000000000000  7.62163372647102e-10  4.32087604377984e-10 
-45.5000000000000  7.56856013099140e-10  4.32087604377984e-10 
-45.0000000000000  7.51509538208095e-10  4.32087604377984e-10 
-44.5000000000000  7.46124753289395e-10  4.32087604377984e-10 
-44.0000000000000  7.40702481048013e-10  4.32087604377984e-10 
-43.5000000000000  7.35243562130355e-10  4.32087604377984e-10 
-43.0000000000000  7.29748855705181e-10  4.32087604377984e-10 
-42.5000000000000  7.24219240075084e-10  4.32087604377984e-10 
-42.0000000000000  7.18655613320202e-10  4.32087604377984e-10 
-41.5000000000000  7.13058893975860e-10  4.32087604377984e-10 
-41.0000000000000  7.07430021745981e-10  4.32087604377984e-10 
-40.5000000000000  7.01769958254168e-10  4.32087604377984e-10 
-40.0000000000000  6.96079687834452e-10  4.32087604377984e-10 
-39.5000000000000  6.90360218363810e-10  4.32087604377984e-10 
-39.0000000000000  6.84612582138665e-10  4.32087604377984e-10 
-38.5000000000000  6.78837836797653e-10  4.32087604377984e-10 
-38.0000000000000  6.73037066293076e-10  4.32087604377984e-10 
-37.5000000000000  6.67211381913549e-10  4.32087604377984e-10 
-37.0000000000000  6.61361923360470e-10  4.32087604377984e-10 
-36.5000000000000  6.55489859881014e-10  4.32087604377984e-10 
-36.0000000000000  6.49596391460515e-10  4.32087604377984e-10 
-35.5000000000000  6.43682750077127e-10  4.32087604377984e-10 
-35.0000000000000  6.37750201021824e-10  4.32087604377984e-10 
-34.5000000000000  6.31800044286832e-10  4.32087604377984e-10 
-34.0000000000000  6.25833616025712e-10  4.32087604377984e-10 
-33.5000000000000  6.19852290088347e-10  4.32087604377984e-10 
-33.0000000000000  6.13857479634176e-10  4.32087604377984e-10 
-32.5000000000000  6.07850638827033e-10  4.32087604377984e-10 
-32.0000000000000  6.01833264614984e-10  4.32087604377984e-10 
-31.5000000000000  5.95806898598534e-10  4.32087604377984e-10 
-31.0000000000000  5.89773128990536e-10  4.32087604377984e-10 
-30.5000000000000  5.83733592671071e-10  4.32087604377984e-10 
-30.0000000000000  5.77689977340421e-10  4.32087604377984e-10 
-29.5000000000000  5.71644023773080e-10  4.32087604377984e-10 
-29.0000000000000  5.65597528175532e-10  4.32087604377984e-10 
-28.5000000000000  5.59552344650148e-10  4.32087604377984e-10 
-28.0000000000000  5.53510387767226e-10  4.32087604377984e-10 
-27.5000000000000  5.47473635246595e-10  4.32087604377984e-10 
-27.0000000000000  5.41444130749676e-10  4.32087604377984e-10 
-26.5000000000000  5.35423986782033e-10  4.32087604377984e-10 
-26.0000000000000  5.29415387705611e-10  4.32087604377984e-10 
-25.5000000000000  5.23420592858699e-10  4.32087604377984e-10 
-25.0000000000000  5.17441939780390e-10  4.32087604377984e-10 
-24.5000000000000  5.11481847534772e-10  4.32087604377984e-10 
-24.0000000000000  5.05542820128271e-10  4.32087604377984e-10 
-23.5000000000000  4.99627450011543e-10  4.32087604377984e-10 
-23.0000000000000  4.93738421654826e-10  4.32087604377984e-10 
-22.5000000000000  4.87878515182984e-10  4.32087604377984e-10 
-22.0000000000000  4.82050610053236e-10  4.32087604377984e-10 
-21.5000000000000  4.76257688755028e-10  4.32087604377984e-10 
-21.0000000000000  4.70502840507376e-10  4.32087604377984e-10 
-20.5000000000000  4.64789264924486e-10  4.32087604377984e-10 
-20.0000000000000  4.59120275615290e-10  4.32087604377984e-10 
-19.5000000000000  4.53499303676864e-10  4.32087604377984e-10 
-19.0000000000000  4.47929901035413e-10  4.32087604377984e-10 
-18.5000000000000  4.42415743581618e-10  4.32087604377984e-10 
-18.0000000000000  4.36960634039675e-10  4.32087604377984e-10 
-17.5000000000000  4.31568504501285e-10  4.32087604377984e-10 
-17.0000000000000  4.26243418547329e-10  4.32087604377984e-10 
-16.5000000000000  4.20989572870904e-10  4.32087604377984e-10 
-16.0000000000000  4.15811298306114e-10  4.32087604377984e-10 
-15.5000000000000  4.10713060157463e-10  4.32087604377984e-10 
-15.0000000000000  4.05699457715303e-10  4.32087604377984e-10 
-14.5000000000000  4.00775222833605e-10  4.32087604377984e-10 
-14.0000000000000  3.95945217437910e-10  4.32087604377984e-10 
-13.5000000000000  3.91214429823870e-10  4.32087604377984e-10 
-13.0000000000000  3.86587969600956e-10  4.32087604377984e-10 
-12.5000000000000  3.82071061132173e-10  4.32087604377984e-10 
-12.0000000000000  3.77669035319613e-10  4.32087604377984e-10 
-11.5000000000000  3.73387319588131e-10  4.32087604377984e-10 
-11.0000000000000  3.69231425926031e-10  4.32087604377984e-10 
-10.5000000000000  3.65206936853223e-10  4.32087604377984e-10 
-10.0000000000000  3.61319489204532e-10  4.32087604377984e-10 
-9.50000000000000  3.57574755639471e-10  4.32087604377984e-10 
-9.00000000000000  3.53978423820346e-10  4.32087604377984e-10 
-8.50000000000000  3.50536173238448e-10  4.32087604377984e-10 
-8.00000000000000  3.47253649713497e-10  4.32087604377984e-10 
-7.50000000000000  3.44136437644138e-10  4.32087604377984e-10 
-7.00000000000000  3.41190030146713e-10  4.32087604377984e-10 
-6.50000000000000  3.38419797284563e-10  4.32087604377984e-10 
-6.00000000000000  3.35830952659258e-10  4.32087604377984e-10 
-5.50000000000000  3.33428518706324e-10  4.32087604377984e-10 
-5.00000000000000  3.31217291108611e-10  4.32087604377984e-10 
-4.50000000000000  3.29201802807413e-10  4.32087604377984e-10 
-4.00000000000000  3.27386288151409e-10  4.32087604377984e-10 
-3.50000000000000  3.25774647772953e-10  4.32087604377984e-10 
-3.00000000000000  3.24370414816689e-10  4.32087604377984e-10 
-2.50000000000000  3.23176723163674e-10  4.32087604377984e-10 
-2.00000000000000  3.22196278292612e-10  4.32087604377984e-10 
-1.50000000000000  3.21431331396519e-10  4.32087604377984e-10 
-1.00000000000000  3.20883657327410e-10  4.32087604377984e-10 
-0.500000000000000  3.20554536873853e-10  4.32087604377984e-10 
 0.00000000000000  3.20444743788079e-10  4.32087604377984e-10 
 0.500000000000000  3.20554536873853e-10  4.32087604377984e-10 
 1.00000000000000  3.20883657327410e-10  4.32087604377984e-10 
 1.50000000000000  3.21431331396519e-10  4.32087604377984e-10 
 2.00000000000000  3.22196278292612e-10  4.32087604377984e-10 
 2.50000000000000  3.23176723163674e-10  4.32087604377984e-10 
 3.00000000000000  3.24370414816689e-10  4.32087604377984e-10 
 3.50000000000000  3.25774647772953e-10  4.32087604377984e-10 
 4.00000000000000  3.27386288151409e-10  4.32087604377984e-10 
 4.50000000000000  3.29201802807413e-10  4.32087604377984e-10 
 5.00000000000000  3.31217291108611e-10  4.32087604377984e-10 
 5.50000000000000  3.33428518706324e-10  4.32087604377984e-10 
 6.00000000000000  3.35830952659258e-10  4.32087604377984e-10 
 6.50000000000000  3.38419797284563e-10  4.32087604377984e-10 
 7.00000000000000  3.41190030146713e-10  4.32087604377984e-10 
 7.50000000000000  3.44136437644138e-10  4.32087604377984e-10 
 8.00000000000000  3.47253649713497e-10  4.32087604377984e-10 
 8.50000000000000  3.50536173238448e-10  4.32087604377984e-10 
 9.00000000000000  3.53978423820346e-10  4.32087604377984e-10 
 9.50000000000000  3.57574755639471e-10  4.32087604377984e-10 
 10.0000000000000  3.61319489204532e-10  4.32087604377984e-10 
 10.5000000000000  3.65206936853223e-10  4.32087604377984e-10 
 11.0000000000000  3.69231425926031e-10  4.32087604377984e-10 
 11.5000000000000  3.73387319588131e-10  4.32087604377984e-10 
 12.0000000000000  3.77669035319613e-10  4.32087604377984e-10 
 12.5000000000000  3.82071061132173e-10  4.32087604377984e-10 
 13.0000000000000  3.86587969600956e-10  4.32087604377984e-10 
 13.5000000000000  3.91214429823870e-10  4.32087604377984e-10 
 14.0000000000000  3.95945217437910e-10  4.32087604377984e-10 
 14.5000000000000  4.00775222833605e-10  4.32087604377984e-10 
 15.0000000000000  4.05699457715303e-10  4.32087604377984e-10 
 15.5000000000000  4.10713060157463e-10  4.32087604377984e-10 
 16.0000000000000  4.15811298306114e-10  4.32087604377984e-10 
 16.5000000000000  4.20989572870904e-10  4.32087604377984e-10 
 17.0000000000000  4.26243418547329e-10  4.32087604377984e-10 
 17.5000000000000  4.31568504501285e-10  4.32087604377984e-10 
 18.0000000000000  4.36960634039675e-10  4.32087604377984e-10 
 18.5000000000000  4.42415743581618e-10  4.32087604377984e-10 
 19.0000000000000  4.47929901035413e-10  4.32087604377984e-10 
 19.5000000000000  4.53499303676864e-10  4.32087604377984e-10 
 20.0000000000000  4.59120275615290e-10  4.32087604377984e-10 
 20.5000000000000  4.64789264924486e-10  4.32087604377984e-10 
 21.0000000000000  4.70502840507376e-10  4.32087604377984e-10 
 21.5000000000000  4.76257688755028e-10  4.32087604377984e-10 
 22.0000000000000  4.82050610053236e-10  4.32087604377984e-10 
 22.5000000000000  4.87878515182984e-10  4.32087604377984e-10 
 23.0000000000000  4.93738421654826e-10  4.32087604377984e-10 
 23.5000000000000  4.99627450011543e-10  4.32087604377984e-10 
 24.0000000000000  5.05542820128271e-10  4.32087604377984e-10 
 24.5000000000000  5.11481847534772e-10  4.32087604377984e-10 
 25.0000000000000  5.17441939780390e-10  4.32087604377984e-10 
 25.5000000000000  5.23420592858699e-10  4.32087604377984e-10 
 26.0000000000000  5.29415387705611e-10  4.32087604377984e-10 
 26.5000000000000  5.35423986782033e-10  4.32087604377984e-10 
 27.0000000000000  5.41444130749676e-10  4.32087604377984e-10 
 27.5000000000000  5.47473635246595e-10  4.32087604377984e-10 
 28.0000000000000  5.53510387767226e-10  4.32087604377984e-10 
 28.5000000000000  5.59552344650148e-10  4.32087604377984e-10 
 29.0000000000000  5.65597528175532e-10  4.32087604377984e-10 
 29.5000000000000  5.71644023773080e-10  4.32087604377984e-10 
 30.0000000000000  5.77689977340421e-10  4.32087604377984e-10 
 30.5000000000000  5.83733592671071e-10  4.32087604377984e-10 
 31.0000000000000  5.89773128990536e-10  4.32087604377984e-10 
 31.5000000000000  5.95806898598534e-10  4.32087604377984e-10 
 32.0000000000000  6.01833264614984e-10  4.32087604377984e-10 
 32.5000000000000  6.07850638827033e-10  4.32087604377984e-10 
 33.0000000000000  6.13857479634176e-10  4.32087604377984e-10 
 33.5000000000000  6.19852290088347e-10  4.32087604377984e-10 
 34.0000000000000  6.25833616025712e-10  4.32087604377984e-10 
 34.5000000000000  6.31800044286832e-10  4.32087604377984e-10 
 35.0000000000000  6.37750201021824e-10  4.32087604377984e-10 
 35.5000000000000  6.43682750077127e-10  4.32087604377984e-10 
 36.0000000000000  6.49596391460515e-10  4.32087604377984e-10 
 36.5000000000000  6.55489859881014e-10  4.32087604377984e-10 
 37.0000000000000  6.61361923360470e-10  4.32087604377984e-10 
 37.5000000000000  6.67211381913549e-10  4.32087604377984e-10 
 38.0000000000000  6.73037066293076e-10  4.32087604377984e-10 
 38.5000000000000  6.78837836797653e-10  4.32087604377984e-10 
 39.0000000000000  6.84612582138665e-10  4.32087604377984e-10 
 39.5000000000000  6.90360218363810e-10  4.32087604377984e-10 
 40.0000000000000  6.96079687834452e-10  4.32087604377984e-10 
 40.5000000000000  7.01769958254168e-10  4.32087604377984e-10 
 41.0000000000000  7.07430021745981e-10  4.32087604377984e-10 
 41.5000000000000  7.13058893975860e-10  4.32087604377984e-10 
 42.0000000000000  7.18655613320202e-10  4.32087604377984e-10 
 42.5000000000000  7.24219240075084e-10  4.32087604377984e-10 
 43.0000000000000  7.29748855705181e-10  4.32087604377984e-10 
 43.5000000000000  7.35243562130355e-10  4.32087604377984e-10 
 44.0000000000000  7.40702481048013e-10  4.32087604377984e-10 
 44.5000000000000  7.46124753289395e-10  4.32087604377984e-10 
 45.0000000000000  7.51509538208095e-10  4.32087604377984e-10 
 45.5000000000000  7.56856013099140e-10  4.32087604377984e-10 
 46.0000000000000  7.62163372647102e-10  4.32087604377984e-10 
 46.5000000000000  7.67430828401722e-10  4.32087604377984e-10 
 47.0000000000000  7.72657608279674e-10  4.32087604377984e-10 
 47.5000000000000  7.77842956091109e-10  4.32087604377984e-10 
 48.0000000000000  7.82986131089722e-10  4.32087604377984e-10 
 48.5000000000000  7.88086407545144e-10  4.32087604377984e-10 
 49.0000000000000  7.93143074336508e-10  4.32087604377984e-10 
 49.5000000000000  7.98155434566119e-10  4.32087604377984e-10 
 50.0000000000000  8.03122805192194e-10  4.32087604377984e-10 
 50.5000000000000  8.08044516679719e-10  4.32087604377984e-10 
 51.0000000000000  8.12919912668472e-10  4.32087604377984e-10 
 51.5000000000000  8.17748349657381e-10  4.32087604377984e-10 
 52.0000000000000  8.22529196704346e-10  4.32087604377984e-10 
 52.5000000000000  8.27261835140785e-10  4.32087604377984e-10 
 53.0000000000000  8.31945658300124e-10  4.32087604377984e-10 
 53.5000000000000  8.36580071259563e-10  4.32087604377984e-10 
 54.0000000000000  8.41164490594417e-10  4.32087604377984e-10 
 54.5000000000000  8.45698344144432e-10  4.32087604377984e-10 
 55.0000000000000  8.50181070791458e-10  4.32087604377984e-10 
 55.5000000000000  8.54612120247919e-10  4.32087604377984e-10 
 56.0000000000000  8.58990952855540e-10  4.32087604377984e-10 
 56.5000000000000  8.63317039393825e-10  4.32087604377984e-10 
 57.0000000000000  8.67589860897801e-10  4.32087604377984e-10 
 57.5000000000000  8.71808908484569e-10  4.32087604377984e-10 
 58.0000000000000  8.75973683188232e-10  4.32087604377984e-10 
 58.5000000000000  8.80083695802782e-10  4.32087604377984e-10 
 59.0000000000000  8.84138466732559e-10  4.32087604377984e-10 
 59.5000000000000  8.88137525849916e-10  4.32087604377984e-10 
 60.0000000000000  8.92080412359733e-10  4.32087604377984e-10 
 60.5000000000000  8.95966674670442e-10  4.32087604377984e-10 
 61.0000000000000  8.99795870271261e-10  4.32087604377984e-10 
 61.5000000000000  9.03567565615327e-10  4.32087604377984e-10 
 62.0000000000000  9.07281336008441e-10  4.32087604377984e-10 
 62.5000000000000  9.10936765503163e-10  4.32087604377984e-10 
 63.0000000000000  9.14533446797991e-10  4.32087604377984e-10 
 63.5000000000000  9.18070981141393e-10  4.32087604377984e-10 
 64.0000000000000  9.21548978240443e-10  4.32087604377984e-10 
 64.5000000000000  9.24967056173859e-10  4.32087604377984e-10 
 65.0000000000000  9.28324841309223e-10  4.32087604377984e-10 
 65.5000000000000  9.31621968224185e-10  4.32087604377984e-10 
 66.0000000000000  9.34858079631471e-10  4.32087604377984e-10 
 66.5000000000000  9.38032826307507e-10  4.32087604377984e-10 
 67.0000000000000  9.41145867024495e-10  4.32087604377984e-10 
