% Finesse 2.1 (2.1-4-g71575b0), 06.02.2017
% 2D plot, y1axis: dB , y2axis: Phase [Deg] 
% f [Hz] (sig1), inphase dB , inphase Phase [Deg] 

 0.0100000000000000  87.3089051159959 -0.576336086076455 
 0.0102329299228075  87.3088844059776 -0.589759740589574 
 0.0104712854805090  87.3088627200224 -0.603496005140155 
 0.0107151930523761  87.3088400121488 -0.617552156557378 
 0.0109647819614318  87.3088162342283 -0.631935640828185 
 0.0112201845430196  87.3087913357875 -0.646654077005921 
 0.0114815362149688  87.3087652640938 -0.661715261229469 
 0.0117489755493953  87.3087379638893 -0.677127170808754 
 0.0120226443461741  87.3087093771967 -0.692897968408200 
 0.0123026877081238  87.3086794434861 -0.709036006354652 
 0.0125892541179416  87.3086480992571 -0.725549830997711 
 0.0128824955169313  87.3086152780398 -0.742448187202688 
 0.0131825673855640  87.3085809102923 -0.759740022938422 
 0.0134896288259165  87.3085449231380 -0.777434493955716 
 0.0138038426460288  87.3085072402498 -0.795540968584658 
 0.0141253754462275  87.3084677818237 -0.814069032649852 
 0.0144543977074592  87.3084264641395 -0.833028494459267 
 0.0147910838816820  87.3083831996350 -0.852429389953701 
 0.0151356124843620  87.3083378965660 -0.872281987934298 
 0.0154881661891247  87.3082904589859 -0.892596795439472 
 0.0158489319246110  87.3082407862535 -0.913384563195857 
 0.0162181009735891  87.3081887731866 -0.934656291258367 
 0.0165958690743754  87.3081343094150 -0.956423234693800 
 0.0169824365246173  87.3080772796106 -0.978696909485782 
 0.0173780082874936  87.3080175629150 -1.00148909848598 
 0.0177827941003890  87.3079550326652 -1.02481185752957 
 0.0181970085860996  87.3078895564925 -1.04867752173251 
 0.0186208713666285  87.3078209955213 -1.07309871182340 
 0.0190546071796322  87.3077492045782 -1.09808834073687 
 0.0194984459975802  87.3076740314601 -1.12365962023940 
 0.0199526231496885  87.3075953169605 -1.14982606779614 
 0.0204173794466950  87.3075128942632 -1.17660151350961 
 0.0208929613085401  87.3074265888408 -1.20400010727742 
 0.0213796208950220  87.3073362177585 -1.23203632602749 
 0.0218776162394952  87.3072415896544 -1.26072498120506 
 0.0223872113856831  87.3071425040471 -1.29008122632989 
 0.0229086765276774  87.3070387511242 -1.32012056478710 
 0.0234422881531988  87.3069301111464 -1.35085885773110 
 0.0239883291901945  87.3068163540223 -1.38231233218601 
 0.0245470891568499  87.3066972388817 -1.41449758932130 
 0.0251188643150954  87.3065725135106 -1.44743161288401 
 0.0257039578276882  87.3064419138582 -1.48113177782304 
 0.0263026799189533  87.3063051634425 -1.51561585908085 
 0.0269153480392686  87.3061619727881 -1.55090204057708 
 0.0275422870333811  87.3060120388363 -1.58700892437781 
 0.0281838293126440  87.3058550442691 -1.62395554004243 
 0.0288403150312655  87.3056906568620 -1.66176135417082 
 0.0295120922666632  87.3055185287661 -1.70044628013654 
 0.0301995172040195  87.3053382958359 -1.74003068802997 
 0.0309029543251352  87.3051495768262 -1.78053541478111 
 0.0316227766016831  87.3049519725150 -1.82198177447287 
 0.0323593656929621  87.3047450650593 -1.86439156891198 
 0.0331131121482583  87.3045284169455 -1.90778709832897 
 0.0338844156139195  87.3043015700544 -1.95219117231330 
 0.0346736850452523  87.3040640449325 -1.99762712101281 
 0.0354813389233567  87.3038153395198 -2.04411880643121 
 0.0363078054770092  87.3035549282349 -2.09169063402455 
 0.0371535229097163  87.3032822608763 -2.14036756447991 
 0.0380189396320551  87.3029967614168 -2.19017512569137 
 0.0389045144994270  87.3026978269358 -2.24113942499615 
 0.0398107170553487  87.3023848261698 -2.29328716154178 
 0.0407380277804101  87.3020570982752 -2.34664563893169 
 0.0416869383470324  87.3017139516063 -2.40124277810711 
 0.0426579518801581  87.3013546619113 -2.45710713029893 
 0.0436515832240153  87.3009784713292 -2.51426789042641 
 0.0446683592150950  87.3005845863152 -2.57275491042741 
 0.0457088189614861  87.3001721763625 -2.63259871303723 
 0.0467735141287184  87.2997403721275 -2.69383050562471 
 0.0478630092322624  87.2992882635742 -2.75648219425258 
 0.0489778819368431  87.2988148982671 -2.82058639800644 
 0.0501187233627256  87.2983192791748 -2.88617646338856 
 0.0512861383991348  87.2978003629231 -2.95328647907067 
 0.0524807460249756  87.2972570573595 -3.02195129063338 
 0.0537031796370235  87.2966882194237 -3.09220651560881 
 0.0549540873857606  87.2960926528214 -3.16408855865875 
 0.0562341325190330  87.2954691055738 -3.23763462690237 
 0.0575439937337137  87.2948162673601 -3.31288274535348 
 0.0588843655355569  87.2941327670349 -3.38987177260000 
 0.0602559586074336  87.2934171696026 -3.46864141644688 
 0.0616595001861460  87.2926679734524 -3.54923224981242 
 0.0630957344480171  87.2918836072517 -3.63168572663761 
 0.0645654229034632  87.2910624268401 -3.71604419792637 
 0.0660693448007572  87.2902027117518 -3.80235092774737 
 0.0676082975391956  87.2893026619188 -3.89065010941089 
 0.0691830970918910  87.2883603938954 -3.98098688152213 
 0.0707945784384111  87.2873739372707 -4.07340734417882 
 0.0724435960074962  87.2863412304559 -4.16795857492503 
 0.0741310241300888  87.2852601167615 -4.26468864485070 
 0.0758577575029153  87.2841283402011 -4.36364663456092 
 0.0776247116628661  87.2829435406321 -4.46488264977705 
 0.0794328234724249  87.2817032495292 -4.56844783718064 
 0.0812830516164066  87.2804048848508 -4.67439439970200 
 0.0831763771102636  87.2790457460252 -4.78277561172205 
 0.0851138038202341  87.2776230087054 -4.89364583397433 
 0.0870963589956044  87.2761337192450 -5.00706052807378 
 0.0891250938133707  87.2745747888693 -5.12307627060214 
 0.0912010839355870  87.2729429879551 -5.24175076693974 
 0.0933254300796950  87.2712349395104 -5.36314286425777 
 0.0954992586021394  87.2694471129383 -5.48731256424161 
 0.0977237220955767  87.2675758172148 -5.61432103496831 
 0.0999999999999955  87.2656171937975 -5.74423062204509 
 0.102329299228071  87.2635672096594 -5.87710485919835 
 0.104712854805085  87.2614216493679 -6.01300847752586 
 0.107151930523756  87.2591761074254 -6.15200741411433 
 0.109647819614313  87.2568259801545 -6.29416881946918 
 0.112201845430191  87.2543664570261 -6.43956106356263 
 0.114815362149683  87.2517925122048 -6.58825374095190 
 0.117489755493947  87.2490988951959 -6.74031767404896 
 0.120226443461735  87.2462801213338 -6.89582491493663 
 0.123026877081232  87.2433304623676 -7.05484874583072 
 0.125892541179410  87.2402439359401 -7.21746367709964 
 0.128824955169307  87.2370142953811 -7.38374544380649 
 0.131825673855634  87.2336350187627 -7.55377099978456 
 0.134896288259158  87.2300992977642 -7.72761850951523 
 0.138038426460281  87.2264000259616 -7.90536733730241 
 0.141253754462268  87.2225297871467 -8.08709803408840 
 0.144543977074585  87.2184808428197 -8.27289232094995 
 0.147910838816813  87.2142451196319 -8.46283306975465 
 0.151356124843613  87.2098141963048 -8.65700428032675 
 0.154881661891240  87.2051792901801 -8.85549105401912 
 0.158489319246103  87.2003312435527 -9.05837956360216 
 0.162181009735884  87.1952605093045 -9.26575701870982 
 0.165958690743747  87.1899571366355 -9.47771162738514 
 0.169824365246165  87.1844107562421 -9.69433255277942 
 0.173780082874928  87.1786105648638 -9.91570986457032 
 0.177827941003882  87.1725453101291 -10.1419344858230 
 0.181970085860988  87.1662032744832 -10.3730981336004 
 0.186208713666276  87.1595722592835 -10.6092932541994 
 0.190546071796314  87.1526395684330 -10.8506129519355 
 0.194984459975793  87.1453919918224 -11.0971509114057 
 0.199526231496876  87.1378157885187 -11.3490013127610 
 0.204173794466941  87.1298966698310 -11.6062587397421 
 0.208929613085391  87.1216197824400 -11.8690180803225 
 0.213796208950210  87.1129696912114 -12.1373744190255 
 0.218776162394942  87.1039303618385 -12.4114229206233 
 0.223872113856820  87.0944851439978 -12.6912587057405 
 0.229086765276763  87.0846167543034 -12.9769767169171 
 0.234422881531978  87.0743072594624 -13.2686715752121 
 0.239883291901934  87.0635380594687 -13.5664374266136 
 0.245470891568488  87.0522898715590 -13.8703677788921 
 0.251188643150942  87.0405427142325 -14.1805553273581 
 0.257039578276870  87.0282758919259 -14.4970917699530 
 0.263026799189521  87.0154679802485 -14.8200676110620 
 0.269153480392674  87.0020968119097 -15.1495719537936 
 0.275422870333799  86.9881394636755 -15.4856922808679 
 0.281838293126427  86.9735722439634 -15.8285142229865 
 0.288403150312641  86.9583706820748 -16.1781213160718 
 0.295120922666619  86.9425095180117 -16.5345947450736 
 0.301995172040181  86.9259626944631 -16.8980130769459 
 0.309029543251338  86.9087033496977 -17.2684519801170 
 0.316227766016816  86.8907038126373 -17.6459839326387 
 0.323593656929606  86.8719355997737 -18.0306779182063 
 0.331131121482568  86.8523694140803 -18.4225991102067 
 0.338844156139179  86.8319751462719 -18.8218085444600 
 0.346736850452507  86.8107218789163 -19.2283627818352 
 0.354813389233550  86.7885778925109 -19.6423135588739 
 0.363078054770076  86.7655106752522 -20.0637074305118 
 0.371535229097146  86.7414869354756 -20.4925854029871 
 0.380189396320534  86.7164726175606 -20.9289825592159 
 0.389045144994253  86.6904329213006 -21.3729276772690 
 0.398107170553468  86.6633323250750 -21.8244428435475 
 0.407380277804083  86.6351346129667 -22.2835430619693 
 0.416869383470305  86.6058029059462 -22.7502358605781 
 0.426579518801561  86.5752996972680 -23.2245208972228 
 0.436515832240134  86.5435868925864 -23.7063895671892 
 0.446683592150930  86.5106258543613 -24.1958246132899 
 0.457088189614841  86.4763774511738 -24.6927997420225 
 0.467735141287163  86.4408021117611 -25.1972792473850 
 0.478630092322602  86.4038598842904 -25.7092176462740 
 0.489778819368409  86.3655104999226 -26.2285593251070 
 0.501187233627234  86.3257134421613 -26.7552382051065 
 0.512861383991325  86.2844280203458 -27.2891774241183 
 0.524807460249732  86.2416134487664 -27.8302890429626 
 0.537031796370210  86.1972289298721 -28.3784737747726 
 0.549540873857581  86.1512337425285 -28.9336207441511 
 0.562341325190304  86.1035873347120 -29.4956072780382 
 0.575439937337111  86.0542494199404 -30.0642987297433 
 0.588843655355542  86.0031800781385 -30.6395483429130 
 0.602559586074309  85.9503398594932 -31.2211971544439 
 0.616595001861432  85.8956898917239 -31.8090739423204 
 0.630957344480142  85.8391919899086 -32.4029952196217 
 0.645654229034602  85.7808087683161 -33.0027652769931 
 0.660693448007541  85.7205037539873 -33.6081762770702 
 0.676082975391926  85.6582415010417 -34.2190084010578 
 0.691830970918879  85.5939877054689 -34.8350300507773 
 0.707945784384079  85.5277093193511 -35.4559981058022 
 0.724435960074929  85.4593746642300 -36.0816582384092 
 0.741310241300855  85.3889535421859 -36.7117452834940 
 0.758577575029119  85.3164173448384 -37.3459836678500 
 0.776247116628625  85.2417391584015 -37.9840878929512 
 0.794328234724213  85.1648938649035 -38.6257630742729 
 0.812830516164028  85.0858582384304 -39.2707055336846 
 0.831763771102598  85.0046110355521 -39.9186034421458 
 0.851138038202302  84.9211330792666 -40.5691375101488 
 0.870963589956004  84.8354073362545 -41.2219817253159 
 0.891250938133667  84.7474189857063 -41.8768041272815 
 0.912010839355828  84.6571554805143 -42.5332676233329 
 0.933254300796908  84.5646065990623 -43.1910308331092 
 0.954992586021351  84.4697644879734 -43.8497489619818 
 0.977237220955722  84.3726236951488 -44.5090746961375 
 0.999999999999909  84.2731811926506 -45.1686591127361 
 1.02329299228066  84.1714363896717 -45.8281526022069 
 1.04712854805080  84.0673911348754 -46.4872057928855 
 1.07151930523751  83.9610497086883 -47.1454704759599 
 1.09647819614308  83.8524188051254 -47.8026005215290 
 1.12201845430186  83.7415075036939 -48.4582527825112 
 1.14815362149677  83.6283272313142 -49.1120879785399 
 1.17489755493942  83.5128917147719 -49.7637715555724 
 1.20226443461730  83.3952169240729 -50.4129745157046 
 1.23026877081226  83.2753210072984 -51.0593742132189 
 1.25892541179405  83.1532242171978 -51.7026551098460 
 1.28824955169301  83.0289488306213 -52.3425094891055 
 1.31825673855628  82.9025190609766 -52.9786381223146 
 1.34896288259152  82.7739609646551 -53.6107508850569 
 1.38038426460275  82.6433023424020 -54.2385673237713 
 1.41253754462262  82.5105726357245 -54.8618171646120 
 1.44543977074579  82.3758028199013 -55.4802407700837 
 1.47910838816806  82.2390252936863 -56.0935895363999 
 1.51356124843606  82.1002737670274 -56.7016262362159 
 1.54881661891233  81.9595831471846 -57.3041253033906 
 1.58489319246096  81.8169894240400 -57.9008730607443 
 1.62181009735877  81.6725295555680 -58.4916678945235 
 1.65958690743739  81.5262413537359 -59.0763203729084 
 1.69824365246157  81.3781633718511 -59.6546533143012 
 1.73780082874920  81.2283347935656 -60.2265018035023 
 1.77827941003874  81.0767953244412 -60.7917131620979 
 1.81970085860980  80.9235850863123 -61.3501468729503 
 1.86208713666268  80.7687445149139 -61.9016744618688 
 1.90546071796305  80.6123142613518 -62.4461793417634 
 1.94984459975784  80.4543350974057 -62.9835566182754 
 1.99526231496867  80.2948478252593 -63.5137128638330 
 2.04173794466931  80.1338931917397 -64.0365658616161 
 2.08929613085382  79.9715118072234 -64.5520443223181 
 2.13796208950201  79.8077440693682 -65.0600875771852 
 2.18776162394932  79.6426300918492 -65.5606452517707 
 2.23872113856810  79.4762096378855 -66.0536769197895 
 2.29086765276753  79.3085220589372 -66.5391517452803 
 2.34422881531967  79.1396062381619 -67.0170481104235 
 2.39883291901923  78.9695005388209 -67.4873532352479 
 2.45470891568476  78.7982427574934 -67.9500627910736 
 2.51188643150931  78.6258700818796 -68.4051805083589 
 2.57039578276858  78.4524190531882 -68.8527177831876 
 2.63026799189509  78.2779255328820 -69.2926932832959 
 2.69153480392662  78.1024246736441 -69.7251325559996 
 2.75422870333786  77.9259508943084 -70.1500676384400 
 2.81838293126414  77.7485378587160 -70.5675366742858 
 2.88403150312628  77.5702184581114 -70.9775835350150 
 2.95120922666606  77.3910247970038 -71.3802574491538 
 3.01995172040168  77.2109881822475 -71.7756126398701 
 3.09029543251324  77.0301391151555 -72.1637079722233 
 3.16227766016802  76.8485072863723 -72.5446066094677 
 3.23593656929591  76.6661215733956 -72.9183756808794 
 3.31131121482553  76.4830100404707 -73.2850859600706 
 3.38844156139164  76.2991999407225 -73.6448115554514 
 3.46736850452492  76.1147177202977 -73.9976296122888 
 3.54813389233534  75.9295890243396 -74.3436200267044 
 3.63078054770059  75.7438387046386 -74.6828651720780 
 3.71535229097129  75.5574908287700 -75.0154496374619 
 3.80189396320517  75.3705686905866 -75.3414599786107 
 3.89045144994235  75.1830948218696 -75.6609844803903 
 3.98107170553450  74.9950910050656 -75.9741129322391 
 4.07380277804064  74.8065782868933 -76.2809364143650 
 4.16869383470286  74.6175769927673 -76.5815470963511 
 4.26579518801542  74.4281067418767 -76.8760380467351 
 4.36515832240114  74.2381864628146 -77.1645030534044 
 4.46683592150909  74.0478344096877 -77.4470364553123 
 4.57088189614820  73.8570681785688 -77.7237329839933 
 4.67735141287142  73.6659047242382 -77.9946876154149 
 4.78630092322580  73.4743603771304 -78.2599954316703 
 4.89778819368386  73.2824508603911 -78.5197514915031 
 5.01187233627211  73.0901913070200 -78.7740507104799 
 5.12861383991302  72.8975962769888 -79.0229877488893 
 5.24807460249708  72.7046797743321 -79.2666569086037 
 5.37031796370186  72.5114552641241 -79.5051520372627 
 5.49540873857556  72.3179356893190 -79.7385664401092 
 5.62341325190279  72.1241334874142 -79.9669927990420 
 5.75439937337085  71.9300606068938 -80.1905230981957 
 5.88843655355515  71.7357285234236 -80.4092485557285 
 6.02559586074282  71.5411482557925 -80.6232595622450 
 6.16595001861404  71.3463303815467 -80.8326456243194 
 6.30957344480113  71.1512850523228 -81.0374953138317 
 6.45654229034573  70.9560220088501 -81.2378962221355 
 6.60693448007511  70.7605505956147 -81.4339349191192 
 6.76082975391895  70.5648797751736 -81.6256969167140 
 6.91830970918847  70.3690181421133 -81.8132666367817 
 7.07945784384046  70.1729739366374 -81.9967273826428 
 7.24435960074896  69.9767550577941 -82.1761613146782 
 7.41310241300820  69.7803690763260 -82.3516494291582 
 7.58577575029084  69.5838232471497 -82.5232715403223 
 7.76247116628590  69.3871245214654 -82.6911062656046 
 7.94328234724177  69.1902795584933 -82.8552310135461 
 8.12830516163992  68.9932947368437 -83.0157219743259 
 8.31763771102560  68.7961761655224 -83.1726541127575 
 8.51138038202263  68.5989296945804 -83.3261011636737 
 8.70963589955965  68.4015609253996 -83.4761356289408 
 8.91250938133626  68.2040752206405 -83.6228287769143 
 9.12010839355787  68.0064777138407 -83.7662506433588 
 9.33254300796865  67.8087733186802 -83.9064700340757 
 9.54992586021307  67.6109667379169 -84.0435545289962 
 9.77237220955678  67.4130624720037 -84.1775704877640 
 9.99999999999863  67.2150648273874 -84.3085830563150 
 10.2329299228061  67.0169779245080 -84.4366561749154 
 10.4712854805076  66.8188057054976 -84.5618525871040 
 10.7151930523746  66.6205519415879 -84.6842338493999 
 10.9647819614303  66.4222202402414 -84.8038603421618 
 11.2201845430181  66.2238140520068 -84.9207912810523 
 11.4815362149672  66.0253366771107 -85.0350847291983 
 11.7489755493937  65.8267912717924 -85.1467976099814 
 12.0226443461724  65.6281808543912 -85.2559857203803 
 12.3026877081221  65.4295083111946 -85.3627037448902 
 12.5892541179399  65.2307764020497 -85.4670052695416 
 12.8824955169295  65.0319877657572 -85.5689427967599 
 13.1825673855622  64.8331449252418 -85.6685677600917 
 13.4896288259146  64.6342502925189 -85.7659305395416 
 13.8038426460269  64.4353061734552 -85.8610804768668 
 14.1253754462255  64.2363147723385 -85.9540658912616 
 14.4543977074572  64.0372781962569 -86.0449340950146 
 14.7910838816799  63.8381984592994 -86.1337314094084 
 15.1356124843599  63.6390774865815 -86.2205031805761 
 15.4881661891226  63.4399171181048 -86.3052937955550 
 15.8489319246088  63.2407191124536 -86.3881466981700 
 16.2181009735869  63.0414851503385 -86.4691044050907 
 16.5958690743732  62.8422168379896 -86.5482085216672 
 16.9824365246150  62.6429157104080 -86.6254997579211 
 17.3780082874912  62.4435832344789 -86.7010179443347 
 17.7827941003866  62.2442208119529 -86.7748020475607 
 18.1970085860971  62.0448297823001 -86.8468901860467 
 18.6208713666259  61.8454114254434 -86.9173196455584 
 19.0546071796296  61.6459669643737 -86.9861268945383 
 19.4984459975775  61.4464975676544 -87.0533475993405 
 19.9526231496858  61.2470043518167 -87.1190166392947 
 20.4173794466922  61.0474883836537 -87.1831681216590 
 20.8929613085372  60.8479506824134 -87.2458353962507 
 21.3796208950191  60.6483922218985 -87.3070510701234 
 21.8776162394922  60.4488139324748 -87.3668470218348 
 22.3872113856800  60.2492167029921 -87.4252544156832 
 22.9086765276742  60.0496013826223 -87.4823037156463 
 23.4422881531956  59.8499687826165 -87.5380246991443 
 23.9883291901912  59.6503196779866 -87.5924464706521 
 24.5470891568465  59.4506548091130 -87.6455974749929 
 25.1188643150919  59.2509748832814 -87.6975055105008 
 25.7039578276846  59.0512805761539 -87.7481977420047 
 26.3026799189497  58.8515725331736 -87.7977007134508 
 26.9153480392650  58.6518513709093 -87.8460403604260 
 27.5422870333773  58.4521176783401 -87.8932420224818 
 28.1838293126401  58.2523720180837 -87.9393304550997 
 28.8403150312615  58.0526149275713 -87.9843298416431 
 29.5120922666592  57.8528469201693 -88.0282638048672 
 30.1995172040154  57.6530684862532 -88.0711554184212 
 30.9029543251310  57.4532800942327 -88.1130272179499 
 31.6227766016788  57.2534821915323 -88.1539012121141 
 32.3593656929577  57.0536752055281 -88.1937988933431 
 33.1131121482538  56.8538595444437 -88.2327412483633 
 33.8844156139148  56.6540355982057 -88.2707487685456 
 34.6736850452476  56.4542037392617 -88.3078414600111 
